T2HK flux file produced from /disk2/usr5/kachulis/T2HK_Ntuples/anumode/*.root on Sun Feb 22 04:25:51 2015
E(GeV)  nu_e   nu_e_bar   nu_mu   nu_mu_bar   nu_tau   nu_tau_bar (GeV 1.0e20 POT m^2)^-1
0.005   0   0   0   0   0   0
0.015   250187   768693   1.61443e+08   9.2486e+07   0   0
0.025   681427   2.73521e+06   4.20198e+08   2.22649e+08   0   0
0.035   1.11611e+06   4.98446e+06   6.31049e+08   3.68844e+08   0   0
0.045   1.55425e+06   7.51645e+06   7.93998e+08   5.31071e+08   0   0
0.055   1.99582e+06   1.03312e+07   9.09042e+08   7.0933e+08   0   0
0.065   2.44085e+06   1.34286e+07   9.76184e+08   9.03621e+08   0   0
0.075   2.88932e+06   1.68088e+07   9.95422e+08   1.11394e+09   0   0
0.085   3.34124e+06   2.04718e+07   9.66757e+08   1.3403e+09   0   0
0.095   3.79661e+06   2.44174e+07   8.90189e+08   1.58269e+09   0   0
0.105   4.25435e+06   2.85829e+07   7.74973e+08   1.83823e+09   0   0
0.115   4.7081e+06   3.25902e+07   6.76645e+08   2.08969e+09   0   0
0.125   5.15678e+06   3.63763e+07   6.0446e+08   2.33419e+09   0   0
0.135   5.60039e+06   3.99414e+07   5.58418e+08   2.57173e+09   0   0
0.145   6.03894e+06   4.32854e+07   5.38519e+08   2.8023e+09   0   0
0.155   6.47171e+06   4.6428e+07   5.41062e+08   3.02854e+09   0   0
0.165   6.89437e+06   4.94885e+07   5.4384e+08   3.26612e+09   0   0
0.175   7.3062e+06   5.24867e+07   5.43151e+08   3.51768e+09   0   0
0.185   7.70721e+06   5.54225e+07   5.38996e+08   3.7832e+09   0   0
0.195   8.0974e+06   5.8296e+07   5.31374e+08   4.0627e+09   0   0
0.205   8.47659e+06   6.11e+07   5.21077e+08   4.35588e+09   0   0
0.215   8.84374e+06   6.37924e+07   5.12844e+08   4.66106e+09   0   0
0.225   9.1987e+06   6.6366e+07   5.07467e+08   4.97797e+09   0   0
0.235   9.54146e+06   6.88208e+07   5.04944e+08   5.30661e+09   0   0
0.245   9.87201e+06   7.11569e+07   5.05278e+08   5.64697e+09   0   0
0.255   1.01885e+07   7.33716e+07   5.08074e+08   5.99914e+09   0   0
0.265   1.04796e+07   7.54492e+07   5.10982e+08   6.36359e+09   0   0
0.275   1.07436e+07   7.73873e+07   5.1361e+08   6.7404e+09   0   0
0.285   1.09804e+07   7.91858e+07   5.15957e+08   7.12958e+09   0   0
0.295   1.119e+07   8.08446e+07   5.18024e+08   7.53112e+09   0   0
0.305   1.13749e+07   8.23746e+07   5.20003e+08   7.94464e+09   0   0
0.315   1.15507e+07   8.38402e+07   5.23059e+08   8.36776e+09   0   0
0.325   1.17199e+07   8.52521e+07   5.27384e+08   8.80011e+09   0   0
0.335   1.18826e+07   8.66104e+07   5.32978e+08   9.24167e+09   0   0
0.345   1.20386e+07   8.79151e+07   5.39842e+08   9.69245e+09   0   0
0.355   1.2185e+07   8.91478e+07   5.47703e+08   1.0151e+10   0   0
0.365   1.23042e+07   9.01986e+07   5.54934e+08   1.06089e+10   0   0
0.375   1.23932e+07   9.1049e+07   5.61261e+08   1.10646e+10   0   0
0.385   1.24519e+07   9.16991e+07   5.66686e+08   1.15181e+10   0   0
0.395   1.24803e+07   9.2149e+07   5.71208e+08   1.19694e+10   0   0
0.405   1.24839e+07   9.24252e+07   5.74865e+08   1.24186e+10   0   0
0.415   1.24952e+07   9.26886e+07   5.77882e+08   1.28656e+10   0   0
0.425   1.25195e+07   9.29658e+07   5.80296e+08   1.33104e+10   0   0
0.435   1.25569e+07   9.32568e+07   5.82108e+08   1.3753e+10   0   0
0.445   1.26073e+07   9.35617e+07   5.83317e+08   1.41934e+10   0   0
0.455   1.26655e+07   9.38677e+07   5.8394e+08   1.46373e+10   0   0
0.465   1.27002e+07   9.40985e+07   5.84076e+08   1.51189e+10   0   0
0.475   1.27059e+07   9.42415e+07   5.83741e+08   1.56439e+10   0   0
0.485   1.26828e+07   9.42966e+07   5.82935e+08   1.62123e+10   0   0
0.495   1.26308e+07   9.42638e+07   5.81658e+08   1.68242e+10   0   0
0.505   1.25567e+07   9.41346e+07   5.8025e+08   1.74763e+10   0   0
0.515   1.25006e+07   9.38569e+07   5.80747e+08   1.81489e+10   0   0
0.525   1.24692e+07   9.34223e+07   5.8349e+08   1.88389e+10   0   0
0.535   1.24625e+07   9.28307e+07   5.88478e+08   1.95462e+10   0   0
0.545   1.24805e+07   9.20821e+07   5.95711e+08   2.02708e+10   0   0
0.555   1.25161e+07   9.12038e+07   6.0455e+08   2.09962e+10   0   0
0.565   1.25265e+07   9.03597e+07   6.11155e+08   2.16235e+10   0   0
0.575   1.25046e+07   8.9577e+07   6.14885e+08   2.2136e+10   0   0
0.585   1.24504e+07   8.88558e+07   6.15742e+08   2.25339e+10   0   0
0.595   1.23638e+07   8.8196e+07   6.13725e+08   2.28172e+10   0   0
0.605   1.22514e+07   8.75825e+07   6.09406e+08   2.29766e+10   0   0
0.615   1.21515e+07   8.69243e+07   6.06223e+08   2.29576e+10   0   0
0.625   1.20704e+07   8.62062e+07   6.04749e+08   2.27509e+10   0   0
0.635   1.20082e+07   8.54283e+07   6.04983e+08   2.23567e+10   0   0
0.645   1.19649e+07   8.45906e+07   6.06926e+08   2.17749e+10   0   0
0.655   1.19359e+07   8.37036e+07   6.09939e+08   2.10234e+10   0   0
0.665   1.18941e+07   8.28314e+07   6.10197e+08   2.02103e+10   0   0
0.675   1.1835e+07   8.19846e+07   6.07062e+08   1.93535e+10   0   0
0.685   1.17585e+07   8.11631e+07   6.00535e+08   1.84531e+10   0   0
0.695   1.16646e+07   8.03671e+07   5.90615e+08   1.75089e+10   0   0
0.705   1.15581e+07   7.95754e+07   5.77906e+08   1.65324e+10   0   0
0.715   1.14669e+07   7.86624e+07   5.66034e+08   1.55914e+10   0   0
0.725   1.13957e+07   7.7607e+07   5.55604e+08   1.46971e+10   0   0
0.735   1.13445e+07   7.64094e+07   5.46616e+08   1.38495e+10   0   0
0.745   1.13133e+07   7.50694e+07   5.39069e+08   1.30487e+10   0   0
0.755   1.12971e+07   7.36099e+07   5.327e+08   1.22942e+10   0   0
0.765   1.12659e+07   7.2168e+07   5.25923e+08   1.15832e+10   0   0
0.775   1.12146e+07   7.07664e+07   5.18475e+08   1.09153e+10   0   0
0.785   1.11431e+07   6.94053e+07   5.10355e+08   1.02905e+10   0   0
0.795   1.10516e+07   6.80845e+07   5.01564e+08   9.70871e+09   0   0
0.805   1.09448e+07   6.68043e+07   4.92185e+08   9.16659e+09   0   0
0.815   1.08509e+07   6.5566e+07   4.82718e+08   8.64348e+09   0   0
0.825   1.07748e+07   6.43697e+07   4.73246e+08   8.13595e+09   0   0
0.835   1.07164e+07   6.32154e+07   4.63769e+08   7.644e+09   0   0
0.845   1.06757e+07   6.21032e+07   4.54287e+08   7.16763e+09   0   0
0.855   1.06482e+07   6.10244e+07   4.4501e+08   6.70643e+09   0   0
0.865   1.06061e+07   5.9928e+07   4.3719e+08   6.25792e+09   0   0
0.875   1.05448e+07   5.88052e+07   4.31036e+08   5.82171e+09   0   0
0.885   1.04645e+07   5.76562e+07   4.26548e+08   5.39778e+09   0   0
0.895   1.0365e+07   5.64809e+07   4.23726e+08   4.98613e+09   0   0
0.905   1.02525e+07   5.5293e+07   4.22171e+08   4.58875e+09   0   0
0.915   1.0164e+07   5.41742e+07   4.19488e+08   4.2174e+09   0   0
0.925   1.01059e+07   5.3138e+07   4.15277e+08   3.87405e+09   0   0
0.935   1.00779e+07   5.21846e+07   4.0954e+08   3.5587e+09   0   0
0.945   1.00802e+07   5.13138e+07   4.02275e+08   3.27136e+09   0   0
0.955   1.01049e+07   5.05075e+07   3.93908e+08   3.01075e+09   0   0
0.965   1.01044e+07   4.96561e+07   3.86992e+08   2.7692e+09   0   0
0.975   1.00707e+07   4.87414e+07   3.81952e+08   2.54545e+09   0   0
0.985   1.0004e+07   4.77633e+07   3.78787e+08   2.33948e+09   0   0
0.995   9.90421e+06   4.67218e+07   3.77499e+08   2.15131e+09   0   0
1.005   9.778e+06   4.5632e+07   3.7767e+08   1.98084e+09   0   0
1.015   9.66541e+06   4.45837e+07   3.76803e+08   1.82755e+09   0   0
1.025   9.57312e+06   4.35917e+07   3.74482e+08   1.69135e+09   0   0
1.035   9.50113e+06   4.2656e+07   3.70708e+08   1.57225e+09   0   0
1.045   9.44945e+06   4.17768e+07   3.65479e+08   1.47024e+09   0   0
1.055   9.41728e+06   4.09409e+07   3.58912e+08   1.38434e+09   0   0
1.065   9.39998e+06   4.00696e+07   3.51698e+08   1.3087e+09   0   0
1.075   9.39678e+06   3.91498e+07   3.43953e+08   1.24235e+09   0   0
1.085   9.40766e+06   3.81816e+07   3.35677e+08   1.18527e+09   0   0
1.095   9.43263e+06   3.71649e+07   3.26871e+08   1.13746e+09   0   0
1.105   9.46485e+06   3.61152e+07   3.17962e+08   1.09773e+09   0   0
1.115   9.46327e+06   3.51245e+07   3.11526e+08   1.05877e+09   0   0
1.125   9.42106e+06   3.42082e+07   3.07992e+08   1.01938e+09   0   0
1.135   9.3382e+06   3.33663e+07   3.0736e+08   9.79546e+08   0   0
1.145   9.2147e+06   3.25988e+07   3.0963e+08   9.39281e+08   0   0
1.155   9.05838e+06   3.1899e+07   3.14106e+08   8.99168e+08   0   0
1.165   8.91617e+06   3.12264e+07   3.16615e+08   8.62744e+08   0   0
1.175   8.79587e+06   3.05744e+07   3.16461e+08   8.30596e+08   0   0
1.185   8.6975e+06   2.99429e+07   3.13643e+08   8.02725e+08   0   0
1.195   8.62105e+06   2.9332e+07   3.08163e+08   7.7913e+08   0   0
1.205   8.56752e+06   2.87465e+07   3.00419e+08   7.5918e+08   0   0
1.215   8.54287e+06   2.82162e+07   2.9281e+08   7.39076e+08   0   0
1.225   8.54809e+06   2.7746e+07   2.85737e+08   7.18184e+08   0   0
1.235   8.58318e+06   2.73359e+07   2.79198e+08   6.96506e+08   0   0
1.245   8.64815e+06   2.69859e+07   2.73194e+08   6.74041e+08   0   0
1.255   8.73283e+06   2.66758e+07   2.67751e+08   6.51098e+08   0   0
1.265   8.77627e+06   2.62848e+07   2.63024e+08   6.29525e+08   0   0
1.275   8.76831e+06   2.57928e+07   2.59038e+08   6.09632e+08   0   0
1.285   8.70896e+06   2.51997e+07   2.55794e+08   5.91419e+08   0   0
1.295   8.59821e+06   2.45055e+07   2.5329e+08   5.74885e+08   0   0
1.305   8.44639e+06   2.37349e+07   2.51378e+08   5.59985e+08   0   0
1.315   8.31554e+06   2.30355e+07   2.49153e+08   5.46448e+08   0   0
1.325   8.21598e+06   2.24319e+07   2.46466e+08   5.3423e+08   0   0
1.335   8.14772e+06   2.19242e+07   2.43316e+08   5.23329e+08   0   0
1.345   8.11076e+06   2.15122e+07   2.39703e+08   5.13745e+08   0   0
1.355   8.09916e+06   2.11855e+07   2.35688e+08   5.05135e+08   0   0
1.365   8.0774e+06   2.08799e+07   2.31641e+08   4.95423e+08   0   0
1.375   8.03954e+06   2.05848e+07   2.27623e+08   4.84266e+08   0   0
1.385   7.98559e+06   2.03002e+07   2.23632e+08   4.71663e+08   0   0
1.395   7.91555e+06   2.00261e+07   2.19671e+08   4.57614e+08   0   0
1.405   7.83485e+06   1.97592e+07   2.15778e+08   4.42474e+08   0   0
1.415   7.77621e+06   1.94799e+07   2.12199e+08   4.28371e+08   0   0
1.425   7.74506e+06   1.9185e+07   2.08975e+08   4.15661e+08   0   0
1.435   7.74141e+06   1.88745e+07   2.06105e+08   4.04342e+08   0   0
1.445   7.76525e+06   1.85484e+07   2.03589e+08   3.94415e+08   0   0
1.455   7.81001e+06   1.82138e+07   2.01411e+08   3.85848e+08   0   0
1.465   7.83619e+06   1.79132e+07   1.99468e+08   3.78447e+08   0   0
1.475   7.83722e+06   1.76537e+07   1.97746e+08   3.72179e+08   0   0
1.485   7.81308e+06   1.74354e+07   1.96242e+08   3.67044e+08   0   0
1.495   7.76379e+06   1.72582e+07   1.94958e+08   3.63042e+08   0   0
1.505   7.69266e+06   1.71128e+07   1.93794e+08   3.59773e+08   0   0
1.515   7.61963e+06   1.69428e+07   1.9215e+08   3.54836e+08   0   0
1.525   7.54802e+06   1.67389e+07   1.89928e+08   3.4783e+08   0   0
1.535   7.47783e+06   1.6501e+07   1.87127e+08   3.38755e+08   0   0
1.545   7.40905e+06   1.62292e+07   1.83747e+08   3.27612e+08   0   0
1.555   7.34361e+06   1.59332e+07   1.79864e+08   3.1496e+08   0   0
1.565   7.29294e+06   1.56714e+07   1.7594e+08   3.04167e+08   0   0
1.575   7.25895e+06   1.54536e+07   1.7205e+08   2.95794e+08   0   0
1.585   7.24165e+06   1.52796e+07   1.68194e+08   2.8984e+08   0   0
1.595   7.24103e+06   1.51496e+07   1.64373e+08   2.86305e+08   0   0
1.605   7.25336e+06   1.5055e+07   1.60652e+08   2.84779e+08   0   0
1.615   7.25618e+06   1.49445e+07   1.57431e+08   2.82797e+08   0   0
1.625   7.24575e+06   1.48096e+07   1.54777e+08   2.79948e+08   0   0
1.635   7.22207e+06   1.46503e+07   1.52689e+08   2.76233e+08   0   0
1.645   7.18514e+06   1.44666e+07   1.51167e+08   2.71651e+08   0   0
1.655   7.13609e+06   1.42651e+07   1.50118e+08   2.66354e+08   0   0
1.665   7.08173e+06   1.40855e+07   1.48985e+08   2.61253e+08   0   0
1.675   7.02319e+06   1.39345e+07   1.47676e+08   2.56498e+08   0   0
1.685   6.96046e+06   1.38121e+07   1.4619e+08   2.52091e+08   0   0
1.695   6.89356e+06   1.37182e+07   1.44527e+08   2.4803e+08   0   0
1.705   6.82582e+06   1.36496e+07   1.42774e+08   2.44306e+08   0   0
1.715   6.77735e+06   1.35872e+07   1.41458e+08   2.40849e+08   0   0
1.725   6.75149e+06   1.35276e+07   1.40666e+08   2.3765e+08   0   0
1.735   6.74825e+06   1.34708e+07   1.40398e+08   2.34708e+08   0   0
1.745   6.76763e+06   1.3417e+07   1.40654e+08   2.32023e+08   0   0
1.755   6.80368e+06   1.33602e+07   1.41259e+08   2.29567e+08   0   0
1.765   6.82068e+06   1.32655e+07   1.41169e+08   2.27171e+08   0   0
1.775   6.81269e+06   1.31271e+07   1.40209e+08   2.24807e+08   0   0
1.785   6.77971e+06   1.2945e+07   1.38379e+08   2.22474e+08   0   0
1.795   6.72173e+06   1.27193e+07   1.3568e+08   2.20173e+08   0   0
1.805   6.64456e+06   1.24619e+07   1.32368e+08   2.17832e+08   0   0
1.815   6.58292e+06   1.22456e+07   1.29993e+08   2.15022e+08   0   0
1.825   6.54261e+06   1.20822e+07   1.28811e+08   2.11672e+08   0   0
1.835   6.52363e+06   1.19719e+07   1.28823e+08   2.0778e+08   0   0
1.845   6.52598e+06   1.19147e+07   1.30028e+08   2.03348e+08   0   0
1.855   6.54489e+06   1.19018e+07   1.32103e+08   1.98506e+08   0   0
1.865   6.55179e+06   1.18816e+07   1.33099e+08   1.94044e+08   0   0
1.875   6.54189e+06   1.18455e+07   1.32692e+08   1.90093e+08   0   0
1.885   6.5152e+06   1.17933e+07   1.30881e+08   1.86652e+08   0   0
1.895   6.47173e+06   1.17252e+07   1.27668e+08   1.83722e+08   0   0
1.905   6.41565e+06   1.16436e+07   1.23344e+08   1.81256e+08   0   0
1.915   6.37208e+06   1.15634e+07   1.19673e+08   1.78971e+08   0   0
1.925   6.3452e+06   1.1487e+07   1.16949e+08   1.76822e+08   0   0
1.935   6.33501e+06   1.14146e+07   1.15171e+08   1.74807e+08   0   0
1.945   6.34152e+06   1.1346e+07   1.14339e+08   1.72928e+08   0   0
1.955   6.35942e+06   1.12803e+07   1.14336e+08   1.71154e+08   0   0
1.965   6.35692e+06   1.12119e+07   1.14451e+08   1.69312e+08   0   0
1.975   6.32874e+06   1.11396e+07   1.14565e+08   1.67372e+08   0   0
1.985   6.27486e+06   1.10635e+07   1.1468e+08   1.65334e+08   0   0
1.995   6.19529e+06   1.09836e+07   1.14794e+08   1.63198e+08   0   0
2.005   6.09625e+06   1.0901e+07   1.14857e+08   1.60922e+08   0   0
2.015   6.01505e+06   1.08223e+07   1.14561e+08   1.58243e+08   0   0
2.025   5.95792e+06   1.07487e+07   1.13855e+08   1.55118e+08   0   0
2.035   5.92486e+06   1.068e+07   1.12738e+08   1.51547e+08   0   0
2.045   5.91586e+06   1.06164e+07   1.11211e+08   1.47531e+08   0   0
2.055   5.92623e+06   1.05584e+07   1.09321e+08   1.4339e+08   0   0
2.065   5.92776e+06   1.05097e+07   1.0735e+08   1.41056e+08   0   0
2.075   5.91576e+06   1.04708e+07   1.05346e+08   1.40849e+08   0   0
2.085   5.89023e+06   1.04419e+07   1.03309e+08   1.42771e+08   0   0
2.095   5.85116e+06   1.04228e+07   1.01239e+08   1.4682e+08   0   0
2.105   5.8011e+06   1.0408e+07   9.92599e+07   1.52421e+08   0   0
2.115   5.75521e+06   1.03632e+07   9.81234e+07   1.56113e+08   0   0
2.125   5.71603e+06   1.02829e+07   9.79544e+07   1.5732e+08   0   0
2.135   5.68356e+06   1.0167e+07   9.87528e+07   1.56042e+08   0   0
2.145   5.6578e+06   1.00154e+07   1.00519e+08   1.52279e+08   0   0
2.155   5.63941e+06   9.83958e+06   1.02978e+08   1.46436e+08   0   0
2.165   5.63231e+06   9.70683e+06   1.04486e+08   1.40942e+08   0   0
2.175   5.63716e+06   9.62846e+06   1.04769e+08   1.36203e+08   0   0
2.185   5.65397e+06   9.60445e+06   1.03827e+08   1.32219e+08   0   0
2.195   5.68272e+06   9.6348e+06   1.0166e+08   1.2899e+08   0   0
2.205   5.71708e+06   9.70645e+06   9.85182e+07   1.26482e+08   0   0
2.215   5.71902e+06   9.741e+06   9.5907e+07   1.24493e+08   0   0
2.225   5.68221e+06   9.72538e+06   9.40769e+07   1.2299e+08   0   0
2.235   5.60663e+06   9.65958e+06   9.30277e+07   1.21972e+08   0   0
2.245   5.4923e+06   9.54361e+06   9.27596e+07   1.2144e+08   0   0
2.255   5.34973e+06   9.38724e+06   9.31729e+07   1.2134e+08   0   0
2.265   5.24205e+06   9.24904e+06   9.36696e+07   1.21358e+08   0   0
2.275   5.17979e+06   9.13878e+06   9.415e+07   1.21441e+08   0   0
2.285   5.16294e+06   9.05645e+06   9.46142e+07   1.21589e+08   0   0
2.295   5.19151e+06   9.00207e+06   9.50621e+07   1.21802e+08   0   0
2.305   5.25728e+06   8.97215e+06   9.54047e+07   1.22073e+08   0   0
2.315   5.31099e+06   8.94584e+06   9.5108e+07   1.22371e+08   0   0
2.325   5.34441e+06   8.91966e+06   9.40828e+07   1.2269e+08   0   0
2.335   5.35756e+06   8.89361e+06   9.23292e+07   1.2303e+08   0   0
2.345   5.35043e+06   8.86769e+06   8.98472e+07   1.2339e+08   0   0
2.355   5.32449e+06   8.84094e+06   8.68199e+07   1.2368e+08   0   0
2.365   5.28855e+06   8.80757e+06   8.43459e+07   1.23356e+08   0   0
2.375   5.24407e+06   8.76662e+06   8.26084e+07   1.22326e+08   0   0
2.385   5.19106e+06   8.71809e+06   8.16073e+07   1.20591e+08   0   0
2.395   5.12952e+06   8.66197e+06   8.13426e+07   1.1815e+08   0   0
2.405   5.06138e+06   8.59825e+06   8.16609e+07   1.15167e+08   0   0
2.415   4.99828e+06   8.52676e+06   8.16409e+07   1.12617e+08   0   0
2.425   4.94216e+06   8.44747e+06   8.11291e+07   1.10663e+08   0   0
2.435   4.89301e+06   8.36039e+06   8.01255e+07   1.09305e+08   0   0
2.445   4.85085e+06   8.26552e+06   7.86302e+07   1.08543e+08   0   0
2.455   4.81563e+06   8.16538e+06   7.68069e+07   1.08349e+08   0   0
2.465   4.78718e+06   8.07515e+06   7.56384e+07   1.08558e+08   0   0
2.475   4.76546e+06   7.99736e+06   7.52886e+07   1.09142e+08   0   0
2.485   4.75047e+06   7.932e+06   7.57575e+07   1.101e+08   0   0
2.495   4.74222e+06   7.87908e+06   7.70451e+07   1.11434e+08   0   0
2.505   4.73822e+06   7.83775e+06   7.89606e+07   1.12971e+08   0   0
2.515   4.72361e+06   7.80295e+06   8.03593e+07   1.13675e+08   0   0
2.525   4.69591e+06   7.77385e+06   8.10505e+07   1.13375e+08   0   0
2.535   4.65512e+06   7.75042e+06   8.10342e+07   1.1207e+08   0   0
2.545   4.60123e+06   7.73269e+06   8.03104e+07   1.0976e+08   0   0
2.555   4.53902e+06   7.71822e+06   7.89806e+07   1.06655e+08   0   0
2.565   4.49702e+06   7.69248e+06   7.76535e+07   1.04011e+08   0   0
2.575   4.48e+06   7.65304e+06   7.64306e+07   1.0204e+08   0   0
2.585   4.48795e+06   7.59991e+06   7.5312e+07   1.00739e+08   0   0
2.595   4.52088e+06   7.53308e+06   7.42977e+07   1.0011e+08   0   0
2.605   4.57127e+06   7.45586e+06   7.33871e+07   1.00062e+08   0   0
2.615   4.59396e+06   7.38805e+06   7.25779e+07   1.00056e+08   0   0
2.625   4.58144e+06   7.33295e+06   7.18695e+07   1.00002e+08   0   0
2.635   4.5337e+06   7.29055e+06   7.12619e+07   9.98994e+07   0   0
2.645   4.45075e+06   7.26086e+06   7.07552e+07   9.97483e+07   0   0
2.655   4.34046e+06   7.24055e+06   7.03044e+07   9.95186e+07   0   0
2.665   4.25009e+06   7.20965e+06   6.96396e+07   9.90292e+07   0   0
2.675   4.1875e+06   7.16483e+06   6.87158e+07   9.82499e+07   0   0
2.685   4.1527e+06   7.10609e+06   6.7533e+07   9.71807e+07   0   0
2.695   4.14568e+06   7.03342e+06   6.60911e+07   9.58215e+07   0   0
2.705   4.16242e+06   6.95214e+06   6.4467e+07   9.42702e+07   0   0
2.715   4.17873e+06   6.89407e+06   6.31203e+07   9.31138e+07   0   0
2.725   4.19057e+06   6.86453e+06   6.21279e+07   9.245e+07   0   0
2.735   4.19794e+06   6.86351e+06   6.14897e+07   9.22789e+07   0   0
2.745   4.20085e+06   6.89102e+06   6.12057e+07   9.26005e+07   0   0
2.755   4.19869e+06   6.93849e+06   6.12353e+07   9.32779e+07   0   0
2.765   4.18787e+06   6.95458e+06   6.13348e+07   9.34906e+07   0   0
2.775   4.16779e+06   6.93074e+06   6.14638e+07   9.31017e+07   0   0
2.785   4.13846e+06   6.86698e+06   6.16222e+07   9.21112e+07   0   0
2.795   4.09986e+06   6.76328e+06   6.18099e+07   9.05192e+07   0   0
2.805   4.05446e+06   6.62947e+06   6.19792e+07   8.85079e+07   0   0
2.815   4.01698e+06   6.52447e+06   6.18433e+07   8.71709e+07   0   0
2.825   3.98987e+06   6.45812e+06   6.13544e+07   8.66905e+07   0   0
2.835   3.97312e+06   6.4304e+06   6.05124e+07   8.70667e+07   0   0
2.845   3.96675e+06   6.44131e+06   5.93173e+07   8.82994e+07   0   0
